ECG
0.363
0.246
0.297
0.386
0.365
0.396
0.342
0.232
0.379
0.395
0.350
0.365
0.363
0.301
0.349
0.264
0.360
0.241
0.285
0.245
0.255
0.386
0.363
0.297
0.411
0.248
0.321
0.312
0.381
0.388
0.280
0.335
0.328
0.364
0.377
0.386
0.301
0.374
0.370
0.283
0.276
0.345
0.428
0.319
0.363
0.299
0.394
0.307
0.352
0.388
0.423
0.436
0.363
0.291
0.294
0.314
0.419
0.315
0.416
0.315
0.438
0.336
0.309
0.320
0.386
0.361
0.340
0.427
0.384
0.378
0.444
0.333
0.418
0.418
0.352
0.386
0.299
0.296
0.382
0.427
0.456
0.313
0.392
0.375
0.294
0.353
0.323
0.436
0.351
0.391
0.327
0.405
0.346
0.416
0.423
0.435
0.382
0.317
0.344
0.467
0.332
0.453
0.403
0.485
0.322
0.388
0.329
0.482
0.312
0.450
0.458
0.468
0.329
0.386
0.362
0.459
0.394
0.480
0.351
0.366
0.346
0.345
0.477
0.426
0.421
0.349
0.477
0.436
0.388
0.418
0.399
0.341
0.371
0.351
0.363
0.373
0.406
0.341
0.494
0.502
0.422
0.422
0.396
0.497
0.403
0.357
0.477
0.408
0.382
0.412
0.358
0.365
0.510
0.513
0.446
0.354
0.386
0.408
0.492
0.349
0.355
0.378
0.464
0.479
0.465
0.430
0.448
0.404
0.485
0.386
0.476
0.386
0.420
0.466
0.495
0.370
0.522
0.495
0.444
0.436
0.438
0.414
0.450
0.451
0.507
0.503
0.477
0.430
0.508
0.459
0.426
0.532
0.521
0.464
0.477
0.471
0.404
0.421
0.452
0.409
0.520
0.404
0.410
0.401
0.411
0.449
0.427
0.537
0.449
0.406
0.535
0.549
0.453
0.394
0.421
0.448
0.482
0.423
0.484
0.504
0.417
0.399
0.431
0.436
0.455
0.470
0.395
0.427
0.524
0.386
0.547
0.512
0.469
0.486
0.425
0.465
0.555
0.481
0.477
0.426
0.472
0.496
0.507
0.456
0.452
0.563
0.393
0.545
0.550
0.530
0.405
0.435
0.448
0.510
0.413
0.518
0.408
0.506
0.478
0.529
0.518
0.552
0.550
0.450
0.516
0.427
0.397
0.525
0.481
0.478
0.554
0.501
0.503
0.546
0.537
0.496
0.426
0.436
0.552
0.399
0.481
0.424
0.569
0.522
0.484
0.479
0.405
0.517
0.402
0.408
0.488
0.412
0.541
0.541
0.525
0.422
0.513
0.488
0.570
0.512
0.539
0.477
0.473
0.543
0.411
0.420
0.427
0.466
0.545
0.540
0.407
0.468
0.490
0.471
0.514
0.508
0.448
0.473
0.399
0.572
0.426
0.415
0.463
0.431
0.483
0.457
0.566
0.560
0.405
0.527
0.444
0.471
0.493
0.564
0.470
0.571
0.449
0.520
0.514
0.491
0.519
0.513
0.426
0.417
0.572
0.424
0.400
0.494
0.551
0.513
0.427
0.459
0.475
0.568
0.420
0.545
0.507
0.459
0.426
0.468
0.477
0.413
0.496
0.431
0.459
0.494
0.435
0.442
0.500
0.437
0.536
0.564
0.519
0.450
0.492
0.407
0.549
0.544
0.533
0.433
0.492
0.390
0.462
0.441
0.414
0.417
0.460
0.401
0.491
0.467
0.507
0.508
0.496
0.388
0.394
0.438
0.476
0.497
0.453
0.526
0.508
0.563
0.495
0.468
0.439
0.539
0.579
0.526
0.477
0.518
0.508
0.541
0.580
0.605
0.603
0.688
0.634
0.720
0.676
0.743
0.625
0.713
0.654
0.732
0.746
0.644
0.688
0.692
0.782
0.823
0.744
0.832
0.823
0.714
0.830
0.802
0.906
0.753
0.845
0.848
0.865
0.930
0.860
0.953
0.901
0.813
0.827
0.913
0.858
0.789
0.812
0.848
0.763
0.849
0.750
0.859
0.732
0.810
0.696
0.702
0.656
0.731
0.739
0.704
0.671
0.699
0.688
0.683
0.664
0.708
0.565
0.644
0.548
0.516
0.592
0.553
0.543
0.568
0.576
0.490
0.535
0.479
0.544
0.531
0.417
0.470
0.453
0.434
0.482
0.363
0.361
0.314
0.450
0.386
0.350
0.389
0.382
0.410
0.401
0.443
0.417
0.500
0.361
0.340
0.340
0.331
0.391
0.399
0.383
0.453
0.428
0.453
0.481
0.488
0.348
0.337
0.436
0.328
0.404
0.404
0.462
0.395
0.377
0.426
0.438
0.398
0.366
0.330
0.407
0.349
0.309
0.435
0.343
0.378
0.421
0.361
0.428
0.366
0.417
0.420
0.372
0.296
0.350
0.366
0.338
0.324
0.435
0.364
0.445
0.356
0.422
0.355
0.428
0.417
0.349
0.319
0.421
0.449
0.337
0.397
0.355
0.425
0.412
0.304
0.427
0.449
0.363
0.429
0.375
0.297
0.304
0.344
0.406
0.420
0.413
0.329
0.368
0.288
0.292
0.296
0.393
0.360
0.305
0.359
0.296
0.279
0.421
0.369
0.434
0.392
0.371
0.412
0.423
0.442
0.265
0.419
0.373
0.440
0.357
0.348
0.405
0.302
0.349
0.421
0.362
0.409
0.390
0.362
0.301
0.375
0.270
0.366
0.372
0.383
0.411
0.427
0.388
0.354
0.415
0.352
0.251
0.269
0.400
0.332
0.396
0.282
0.342
0.355
0.248
0.351
0.305
0.248
0.326
0.272
0.259
0.273
0.262
0.269
0.242
0.347
0.283
0.328
0.355
0.319
0.325
0.308
0.249
0.314
0.378
0.381
0.272
0.260
0.323
0.336
0.295
0.256
0.388
0.233
0.236
0.242
0.245
0.325
0.316
0.222
0.378
0.341
0.342
0.221
0.362
0.374
0.382
0.359
0.345
0.296
0.235
0.273
0.225
0.206
0.367
0.252
0.250
0.256
0.279
0.310
0.198
0.343
0.292
0.343
0.252
0.269
0.198
0.219
0.305
0.244
0.345
0.204
0.359
0.278
0.307
0.358
0.230
0.252
0.260
0.312
0.321
0.192
0.205
0.236
0.181
0.263
0.229
0.199
0.204
0.327
0.285
0.247
0.326
0.180
0.294
0.291
0.259
0.190
0.263
0.209
0.178
0.191
0.312
0.164
0.193
0.158
0.227
0.149
0.306
0.179
0.160
0.197
0.222
0.158
0.316
0.196
0.189
0.145
0.186
0.140
0.220
0.265
0.240
0.141
0.138
0.260
0.278
0.211
0.134
0.262
0.174
0.165
0.245
0.113
0.119
0.229
0.217
0.202
0.238
0.233
0.246
0.157
0.229
0.204
0.175
0.114
0.242
0.162
0.210
0.233
0.119
0.122
0.197
0.185
0.256
0.239
0.227
0.105
0.108
0.110
0.236
0.261
0.214
0.115
0.220
0.110
0.111
0.204
0.147
0.205
0.221
0.191
0.218
0.128
0.216
0.258
0.239
0.099
0.148
0.148
0.204
0.188
0.222
0.146
0.116
0.095
0.216
0.115
0.147
0.176
0.117
0.191
0.162
0.102
0.214
0.092
0.126
0.115
0.167
0.088
0.144
0.090
0.091
0.210
0.122
0.177
0.241
0.145
0.192
0.203
0.144
0.184
0.086
0.232
0.099
0.112
0.207
0.151
0.201
0.134
0.111
0.069
0.182
0.138
0.142
0.170
0.071
0.116
0.198
0.184
0.081
0.082
0.075
0.059
0.133
0.174
0.186
0.151
0.076
0.169
0.078
0.079
0.072
0.080
0.084
0.089
0.110
0.110
0.092
0.098
0.212
0.178
0.151
0.085
0.089
0.065
0.214
0.177
0.150
0.106
0.080
0.161
0.226
0.080
0.095
0.120
0.062
0.171
0.120
0.223
0.120
0.158
0.075
0.115
0.076
0.182
0.202
0.109
0.169
0.099
0.141
0.195
0.152
0.106
0.099
0.126
0.121
0.109
0.145
0.178
0.121
0.121
0.067
0.049
0.096
0.101
0.161
0.215
0.211
0.126
0.087
0.180
0.179
0.176
0.177
0.063
0.165
0.126
0.082
0.061
0.191
0.075
0.073
0.162
0.203
0.136
0.169
0.071
0.214
0.140
0.165
0.050
0.188
0.177
0.065
0.138
0.102
0.142
0.115
0.118
0.076
0.090
0.048
0.209
0.161
0.211
0.074
0.209
0.187
0.148
0.124
0.091
0.180
0.086
0.057
0.183
0.166
0.174
0.161
0.121
0.116
0.192
0.104
0.192
0.188
0.200
0.138
0.161
0.218
0.127
0.059
0.203
0.161
0.112
0.227
0.089
0.166
0.158
0.119
0.076
0.055
0.126
0.084
0.181
0.118
0.202
0.183
0.154
0.084
0.224
0.101
0.219
0.094
0.121
0.070
0.169
0.087
0.064
0.185
0.118
0.174
0.125
0.169
0.061
0.220
0.201
0.192
0.204
0.128
0.170
0.163
0.155
0.110
0.106
0.142
0.103
0.206
0.239
0.068
0.159
0.079
0.208
0.241
0.077
0.233
0.069
0.189
0.207
0.163
0.226
0.229
0.180
0.094
0.109
0.103
0.078
0.090
0.182
0.240
0.136
0.146
0.249
0.243
0.195
0.251
0.212
0.136
0.195
0.121
0.130
0.199
0.173
0.153
0.187
0.214
0.185
0.180
0.186
0.174
0.098
0.212
0.262
0.148
0.259
0.148
0.245
0.168
0.161
0.127
0.111
0.144
0.220
0.230
0.215
0.093
0.243
0.258
0.231
0.102
0.162
0.221
0.226
0.137
0.145
0.218
0.184
0.211
0.142
0.132
0.249
0.239
0.269
0.122
0.136
0.122
0.193
0.140
0.266
0.125
0.116
0.208
0.247
0.166
0.143
0.172
0.150
0.204
0.275
0.226
0.133
0.185
0.126
0.206
0.195
0.297
0.264
0.207
0.280
0.146
0.192
0.288
0.287
0.252
0.235
0.187
0.294
0.150
0.259
0.244
0.278
0.201
0.265
0.281
0.190
0.232
0.309
0.233
0.205
0.268
0.233
0.315
0.265
0.291
0.338
0.399
0.295
0.398
0.391
0.441
0.288
0.357
0.423
0.366
0.369
0.466
0.462
0.467
0.491
0.393
0.458
0.488
0.461
0.557
0.594
0.503
0.594
0.500
0.636
0.523
0.614
0.586
0.676
0.633
0.642
0.723
0.641
0.669
0.772
0.619
0.797
0.663
0.739
0.714
0.721
0.655
0.691
0.716
0.565
0.567
0.716
0.649
0.564
0.585
0.525
0.542
0.530
0.534
0.492
0.517
0.467
0.594
0.443
0.582
0.478
0.406
0.449
0.509
0.510
0.456
0.471
0.499
0.339
0.374
0.318
0.335
0.419
0.410
0.428
0.366
0.265
0.407
0.376
0.274
0.311
0.380
0.322
0.335
0.252
0.249
0.256
0.199
0.297
0.264
0.301
0.252
0.233
0.305
0.286
0.362
0.362
0.343
0.248
0.229
0.326
0.281
0.396
0.404
0.281
0.374
0.391
0.339
0.391
0.403
0.333
0.366
0.340
0.242
0.318
0.355
0.333
0.308
0.409
0.391
0.395
0.311
0.351
0.402
0.414
0.368
0.286
0.367
0.264
0.324
0.372
0.420
0.399
0.342
0.391
0.331
0.431
0.435
0.414
0.330
0.342
0.306
0.403
0.421
0.428
0.365
0.373
0.294
0.429
0.349
0.306
0.431
0.408
0.430
0.324
0.394
0.393
0.298
0.349
0.327
0.406
0.330
0.440
0.428
0.355
0.377
0.414
0.441
0.402
0.398
0.355
0.380
0.427
0.459
0.431
0.307
0.425
0.385
0.386
0.330
0.455
0.369
0.356
0.375
0.382
0.413
0.417
0.389
0.390
0.412
0.439
0.492
0.452
0.396
0.474
0.351
0.338
0.344
0.359
0.388
0.385
0.335
0.430
0.351
0.362
0.449
0.491
0.512
0.441
0.518
0.440
0.434
0.402
0.420
0.432
0.358
0.505
0.359
0.426
0.496
0.420
0.460
0.497
0.510
0.519
0.388
0.401
0.515
0.462
0.447
0.467
0.505
0.454
0.396
0.441
0.438
0.534
0.473
0.487
0.493
0.427
0.458
0.466
0.395
0.468
0.492
0.445
0.519
0.501
0.435
0.453
0.441
0.511
0.504
0.451
0.498
0.544
0.516
0.502
0.396
0.447
0.483
0.461
0.388
0.420
0.529
0.383
0.535
0.396
0.502
0.472
0.422
0.486
0.406
0.505
0.492
0.396
0.396
0.414
0.391
0.465
0.536
0.499
0.482
0.543
0.407
0.552
0.410
0.483
0.417
0.491
0.393
0.529
0.544
0.556
0.569
0.484
0.442
0.412
0.485
0.499
0.531
0.410
0.513
0.488
0.426
0.564
0.502
0.475
0.565
0.514
0.478
0.547
0.492
0.496
0.519
0.463
0.440
0.501
0.553
0.470
0.418
0.477
0.451
0.470
0.547
0.470
0.467
0.462
0.423
0.444
0.413
0.474
0.443
0.450
0.472
0.417
0.484
0.521
0.438
0.534
0.406
0.462
0.388
0.427
0.388
0.422
0.414
0.437
0.420
0.414
0.497
0.551
0.558
0.430
0.477
0.458
0.485
0.439
0.404
0.470
0.423
0.397
0.563
0.469
0.564
0.529
0.394
0.515
0.519
0.509
0.492
0.433
0.532
0.435
0.460
0.553
0.547
0.466
0.451
0.503
0.557
0.557
0.501
0.455
0.548
0.474
0.557
0.401
0.491
0.524
0.428
0.456
0.429
0.453
0.468
0.494
0.405
0.495
0.445
0.439
0.440
0.424
0.567
0.563
0.542
0.526
0.428
0.461
0.430
0.396
0.453
0.521
0.508
0.493
0.474
0.447
0.486
0.532
0.532
0.499
0.529
0.511
0.418
0.486
0.457
0.412
0.422
0.431
0.515
0.472
0.519
0.441
0.396
0.489
0.444
0.563
0.556
0.464
0.398
0.514
0.543
0.567
0.403
0.473
0.497
0.515
0.521
0.508
0.522
0.459
0.496
0.412
0.402
0.566
0.442
0.497
0.562
0.423
0.424
0.451
0.556
0.459
0.438
0.416
0.459
0.455
0.411
0.465
0.404
0.497
0.389
0.489
0.527
0.428
0.466
0.487
0.396
0.473
0.499
0.424
0.533
0.557
0.534
0.473
0.432
0.515
0.424
0.552
0.492
0.488
0.411
0.396
0.425
0.532
0.541
0.503
0.507
0.419
0.480
0.521
0.448
0.552
0.392
0.432
0.466
0.385
0.503
0.473
0.467
0.521
0.525
0.512
0.428
0.451
0.505
0.389
0.389
0.417
0.462
0.542
0.494
0.423
0.418
0.518
0.528
0.479
0.410
0.380
0.513
0.467
0.532
0.373
0.466
0.412
0.508
0.394
0.438
0.429
0.506
0.478
0.394
0.413
0.380
0.475
0.457
0.384
0.380
0.438
0.514
0.450
0.357
0.360
0.494
0.430
0.417
0.489
0.413
0.442
0.473
0.501
0.404
0.461
0.518
0.357
0.447
0.416
0.396
0.388
0.475
0.517
0.372
0.478
0.372
0.514
0.479
0.411
0.465
0.423
0.478
0.396
0.345
0.437
0.493
0.365
0.406
0.462
0.335
0.496
0.463
0.425
0.358
0.413
0.416
0.500
0.475
0.493
0.442
0.392
0.486
0.404
0.359
0.388
0.442
0.415
0.450
0.492
0.485
0.408
0.484
0.332
0.319
0.364
0.412
0.403
0.468
0.403
0.383
0.402
0.431
0.306
0.446
0.327
0.386
0.346
0.365
0.417
0.328
0.347
0.332
0.330
0.353
0.451
0.377
0.364
0.323
0.464
0.363
0.440
0.398
0.355
0.443
0.426
0.368
0.429
0.444
0.359
0.341
0.387
0.441
0.404
0.346
0.409
0.447
0.373
0.371
0.330
0.286
0.305
0.288
0.353
0.271
0.432
0.383
0.267
0.272
0.303
0.346
0.286
0.264
0.392
0.324
0.400
0.337
0.337
0.267
0.266
0.272
0.361
0.297
0.404
0.406
0.424
0.338
0.289
0.289
0.344
0.383
0.308
0.328
0.359
0.408
0.272
0.370
0.344
0.318
0.397
0.309
0.270
0.350
0.347
0.294
0.377
0.412
0.407
0.254
0.272
0.234
0.337
0.248
0.300
0.384
0.323
0.290
0.261
0.301
0.392
0.243
0.304
0.372
0.226
0.341
0.391
0.266
0.238
0.336
0.375
0.321
0.372
0.245
0.344
0.270
0.282
0.234
0.352
0.316
0.336
0.347
0.214
0.371
0.289
0.334
0.331
0.346
0.235
0.299
0.337
0.403
0.395
0.416
0.369
0.379
0.437
0.301
0.462
0.387
0.330
0.466
0.370
0.378
0.470
0.417
0.439
0.463
0.473
0.479
0.529
0.460
0.473
0.466
0.516
0.606
0.520
0.620
0.621
0.654
0.665
0.579
0.591
0.639
0.614
0.714
0.720
0.684
0.641
0.726
0.655
0.700
0.675
0.692
0.761
0.708
0.736
0.592
0.633
0.536
0.651
0.612
0.646
0.658
0.636
0.532
0.448
0.533
0.462
0.453
0.461
0.408
0.513
0.502
0.454
0.406
0.483
0.422
0.483
0.460
0.353
0.376
0.329
0.367
0.386
0.366
0.244
0.357
0.203
0.262
0.307
0.304
0.219
0.275
0.290
0.163
0.132
0.137
0.148
0.126
0.229
0.067
0.173
0.106
0.237
0.127
0.196
0.295
0.179
0.123
0.152
0.184
0.172
0.153
0.278
0.233
0.282
0.187
0.276
0.109
0.216
0.250
0.147
0.272
0.241
0.251
0.206
0.244
0.161
0.141
0.156
0.204
0.247
0.150
0.170
0.251
0.206
0.273
0.132
0.242
0.215
0.138
0.178
0.164
0.199
0.234
0.109
0.237
0.239
0.152
0.165
0.190
0.212
0.219
0.221
0.155
0.161
0.255
0.186
0.235
0.132
0.193
0.186
0.253
0.096
0.169
0.172
0.095
0.240
0.235
0.155
0.216
0.102
0.186
0.121
0.154
0.225
0.108
0.131
0.164
0.139
0.222
0.256
0.108
0.123
0.206
0.148
0.255
0.254
0.196
0.235
0.153
0.194
0.257
0.181
0.248
0.210
0.167
0.195
0.239
0.116
0.151
0.258
0.152
0.198
0.241
0.258
0.197
0.099
0.086
0.190
0.181
0.251
0.212
0.197
0.172
0.125
0.250
0.175
0.084
0.203
0.171
0.088
0.237
0.137
0.119
0.098
0.133
0.118
0.193
0.089
0.126
0.127
0.233
0.156
0.211
0.184
0.216
0.096
0.250
0.227
0.084
0.158
0.133
0.187
0.116
0.178
0.182
0.181
0.154
0.080
0.165
0.146
0.093
0.155
0.154
0.171
0.217
0.198
0.228
0.082
0.112
0.154
0.243
0.213
0.153
0.131
0.082
0.204
0.162
0.107
0.147
0.101
0.205
0.137
0.239
0.074
0.218
0.182
0.166
0.186
0.200
0.087
0.226
0.072
0.122
0.102
0.235
0.081
0.173
0.183
0.185
0.223
0.079
0.215
0.163
0.192
0.106
0.165
0.194
0.239
0.147
0.083
0.078
0.180
0.210
0.191
0.129
0.236
0.160
0.238
0.080
0.104
0.205
0.230
0.207
0.119
0.094
0.218
0.207
0.115
0.107
0.123
0.214
0.213
0.168
0.168
0.117
0.190
0.207
0.144
0.145
0.148
0.115
0.185
0.226
0.227
0.198
0.110
0.187
0.087
0.085
0.097
0.089
0.167
0.075
0.209
0.191
0.227
0.149
0.178
0.219
0.156
0.109
0.232
0.064
0.114
0.226
0.118
0.108
0.075
0.217
0.078
0.113
0.214
0.144
0.165
0.159
0.180
0.061
0.150
0.062
0.204
0.118
0.209
0.102
0.162
0.226
0.067
0.069
0.063
0.182
0.167
0.081
0.203
0.172
0.074
0.075
0.087
0.204
0.080
0.106
0.108
0.083
0.218
0.190
0.197
0.183
0.159
0.126
0.186
0.089
0.095
0.073
0.242
0.243
0.093
0.154
0.189
0.124
0.207
0.173
0.150
0.122
0.209
0.235
0.206
0.149
0.244
0.123
0.173
0.249
0.126
0.124
0.245
0.092
0.134
0.187
0.118
0.196
0.225
0.173
0.200
0.227
0.127
0.193
0.106
0.179
0.237
0.253
0.178
0.139
0.206
0.254
0.182
0.266
0.128
0.113
0.147
0.165
0.170
0.151
0.220
0.113
0.169
0.151
0.153
0.118
0.206
0.151
0.129
0.102
0.153
0.201
0.259
0.112
0.267
0.129
0.255
0.250
0.272
0.133
0.199
0.182
0.142
0.214
0.220
0.151
0.206
0.291
0.202
0.240
0.190
0.123
0.170
0.262
0.181
0.135
0.212
0.187
0.254
0.217
0.267
0.270
0.159
0.148
0.273
0.241
0.131
0.289
0.222
0.228
0.239
0.268
0.285
0.202
0.149
0.266
0.195
0.286
0.204
0.286
0.170
0.163
0.298
0.149
0.265
0.274
0.222
0.212
0.320
0.217
0.225
0.176
0.207
0.205
0.310
0.195
0.207
0.226
0.280
0.180
0.311
0.171
0.239
0.163
0.293
0.284
0.198
0.282
0.261
0.314
0.263
0.325
0.240
0.230
0.254
0.213
0.334
0.253
0.215
0.248
0.297
0.244
0.206
0.327
0.280
0.243
0.217
0.217
0.272
0.257
0.313
0.194
0.333
0.304
0.208
0.338
0.221
0.295
0.284
0.217
0.190
0.328
0.327
0.267
0.203
0.298
0.225
0.325
0.291
0.242
0.362
0.334
0.358
0.213
0.234
0.334
0.328
0.343
0.294
0.282
0.316
0.360
0.328
0.303
0.264
0.337
0.280
0.314
0.372
0.365
0.376
0.384
0.363
0.218
0.220
0.236
0.267
0.226
0.298
0.284
0.321
0.391
0.279
0.287
0.381
0.290
0.254
0.321
0.384
0.301
0.357
0.346
0.315
0.320
0.406
0.253
0.288
0.319
0.345
0.398
0.326
0.321
0.377
0.328
0.399
0.330
0.336
0.335
0.290
0.265
0.263
0.410
0.294
0.407
0.381
0.411
0.424
0.282
0.328
0.434
0.375
0.420
0.347
0.265
0.374
0.305
0.359
0.395
0.375
0.372
0.345
0.312
0.346
0.272
0.380
0.443
0.290
0.280
0.433
0.320
0.278
0.423
0.303
0.436
0.297
0.344
0.387
0.387
0.402
0.400
0.362
0.311
0.421
0.330
0.404
0.442
0.305
0.464
0.297
0.441
0.442
0.303
0.392
0.464
0.354
0.441
0.405
0.440
0.442
0.309
0.352
0.418
0.390
0.477
0.438
0.406
0.359
0.352
0.466
0.388
0.454
0.327
0.464
0.316
0.472
0.473
0.407
0.335
0.347
0.442
0.465
0.323
0.453
0.489
0.380
0.434
0.382
0.360
0.463
0.452
0.373
0.428
0.400
0.342
0.331
0.415
0.378
0.389
0.381
0.360
0.402
0.456
0.368
0.452
0.412
0.411
0.366
0.370
0.446
0.385
0.437
0.507
0.466
0.461
0.511
0.479
0.460
0.532
0.385
0.433
0.573
0.546
0.504
0.552
0.516
0.520
0.501
0.543
0.491
0.581
0.567
0.693
0.629
0.692
0.625
0.646
0.722
0.763
0.690
0.773
0.751
0.732
0.814
0.800
0.835
0.790
0.753
0.782
0.871
0.721
0.758
0.825
0.849
0.774
0.892
0.944
0.816
0.885
0.868
1.000
0.923
0.849
0.818
0.881
0.922
0.913
0.903
0.780
0.831
0.880
0.735
0.856
0.854
0.722
0.687
0.748
0.802
0.727
0.707
0.712
0.635
0.626
0.748
0.690
0.619
0.716
0.562
0.623
0.660
0.582
0.583
0.595
0.650
0.620
0.483
0.510
0.518
0.594
0.505
0.462
0.516
0.485
0.549
0.546
0.515
0.485
0.481
0.499
0.339
0.383
0.334
0.492
0.446
0.431
0.417
0.483
0.440
0.400
0.404
0.401
0.462
0.411
0.469
0.550
0.453
0.412
0.492
0.547
0.453
0.399
0.417
0.405
0.524
0.473
0.511
0.517
0.494
0.505
0.550
0.511
0.549
0.477
0.419
0.406
0.521
0.449
0.514
0.511
0.489
0.522
0.485
0.482
0.484
0.562
0.465
0.416
0.438
0.518
0.545
0.569
0.434
0.531
0.500
0.468
0.487
0.484
0.512
0.529
0.450
0.412
0.544
0.466
0.535
0.428
0.416
0.558
0.553
0.575
0.551
0.403
0.494
0.574
0.487
0.552
0.409
0.572
0.565
0.502
0.480
0.464
0.533
0.408
0.473
0.571
0.505
0.492
0.497
0.464
0.579
0.585
0.501
0.587
0.492
0.487
0.449
0.446
0.560
0.541
0.506
0.560
0.504
0.511
0.450
0.518
0.438
0.422
0.535
0.522
0.452
0.486
0.526
0.512
0.436
0.443
0.413
0.488
0.500
0.442
0.532
0.416
0.434
0.583
0.587
0.418
0.501
0.567
0.456
0.561
0.557
0.524
0.412
0.480
0.573
0.533
0.479
0.524
0.454
0.513
0.586
0.562
0.461
0.532
0.473
0.585
0.424
0.453
0.553
0.423
0.503
0.551
0.539
0.432
0.485
0.469
0.491
0.511
0.431
0.567
0.519
0.433
0.505
0.570
0.543
0.525
0.485
0.448
0.503
0.445
0.458
0.563
0.558
0.541
0.564
0.430
0.490
0.509
0.560
0.515
0.465
0.527
0.541
0.501
0.409
0.558
0.402
0.486
0.413
0.459
0.535
0.433
0.547
0.516
0.455
0.432
0.432
0.523
0.394
0.507
0.495
0.517
0.557
0.451
0.428
0.537
0.524
0.462
0.395
0.479
0.411
0.471
0.439
0.431
0.504
0.466
0.514
0.408
0.492
0.380
0.513
0.490
0.537
0.383
0.528
0.456
0.474
0.420
0.376
0.514
0.387
0.426
0.470
0.536
0.449
0.533
0.395
0.425
0.477
0.363
0.484
0.425
0.493
0.415
0.403
0.521
0.472
0.416
0.359
0.471
0.453
0.350
0.357
0.509
0.421
0.335
0.338
0.349
0.482
0.405
0.422
0.409
0.332
0.480
0.370
0.366
0.423
0.401
0.381
0.432
0.482
0.424
0.363
0.348
0.389
0.315
0.466
0.418
0.344
0.400
0.316
0.460
0.384
0.402
0.405
0.424
0.368
0.315
0.382
0.308
0.430
0.305
0.467
0.429
0.463
0.386
0.337
0.339
0.428
0.469
0.354
0.424
0.309
0.395
0.364
0.417
0.332
0.302
0.365
0.397
0.306
0.362
0.397
0.428
0.334
0.350
0.435
0.402
0.319
0.411
0.326
0.323
0.273
0.338
0.349
0.324
0.321
0.311
0.434
0.420
0.336
0.350
0.365
0.350
0.310
0.438
0.293
0.413
0.264
0.317
0.391
0.371
0.285
0.424
0.350
0.297
0.355
0.414
0.410
0.335
0.327
0.303
0.256
0.380
0.268
0.307
0.314
0.400
0.245
0.391
0.291
0.283
0.325
0.367
0.272
0.274
0.408
0.339
0.287
0.404
0.391
0.264
0.229
0.355
0.382
0.247
0.232
0.331
0.331
0.315
0.223
0.344
0.389
0.375
0.238
0.281
0.260
0.316
0.324
0.267
0.355
0.354
0.351
0.273
0.219
0.335
0.385
0.236
0.226
0.368
0.290
0.355
0.347
0.235
0.245
0.209
0.307
0.337
0.288
0.201
0.372
0.284
0.253
0.224
0.303
0.293
0.324
0.216
0.252
0.213
0.338
0.246
0.234
0.185
0.326
0.271
0.277
0.336
0.309
0.298
0.210
0.275
0.347
0.282
0.319
0.349
0.331
0.210
0.177
0.251
0.172
0.253
0.337
0.211
0.235
0.242
0.313
0.311
0.243
0.230
0.326
0.292
0.291
0.327
0.249
0.298
0.237
0.307
0.224
0.285
0.327
0.245
0.228
0.187
0.207
0.168
0.215
0.206
0.207
0.291
0.239
0.237
0.281
0.164
0.253
0.202
0.199
0.241
0.292
0.173
0.257
0.297
0.171
0.187
0.222
0.292
0.221
0.181
0.226
0.232
0.203
0.131
0.253
0.217
0.194
0.137
0.188
0.165
0.159
0.267
0.192
0.130
0.187
0.258
0.148
0.281
0.174
0.175
0.152
0.252
0.127
0.283
0.141
0.163
0.234
0.136
0.201
0.238
0.274
0.239
0.241
0.179
0.149
0.198
0.144
0.254
0.222
0.248
0.244
0.185
0.156
0.223
0.275
0.236
0.246
0.223
0.203
0.230
0.184
0.249
0.106
0.266
0.111
0.190
0.164
0.110
0.220
0.199
0.229
0.190
0.233
0.190
0.255
0.242
0.176
0.226
0.169
0.232
0.141
0.257
0.132
0.095
0.215
0.229
0.245
0.138
0.223
0.175
0.161
0.224
0.247
0.090
0.203
0.117
0.146
0.122
0.223
0.251
0.189
0.198
0.238
0.194
0.173
0.139
0.183
0.134
0.142
0.135
0.152
0.158
0.230
0.104
0.127
0.169
0.153
0.112
0.168
0.221
0.075
0.142
0.078
0.163
0.159
0.199
0.103
0.166
0.143
0.214
0.178
0.123
0.121
0.104
0.229
0.111
0.086
0.122
0.190
0.183
0.182
0.057
0.123
0.216
0.112
0.161
0.108
0.077
0.123
0.200
0.229
0.207
0.068
0.113
0.094
0.109
0.227
0.149
0.185
0.201
0.080
0.212
0.069
0.183
0.180
0.178
0.073
0.129
0.140
0.143
0.202
0.169
0.192
0.143
0.218
0.059
0.144
0.097
0.133
0.169
0.094
0.176
0.136
0.245
0.122
0.127
0.291
0.157
0.167
0.178
0.177
0.253
0.301
0.341
0.344
0.340
0.308
0.361
0.416
0.345
0.320
0.417
0.329
0.339
0.390
0.428
0.438
0.361
0.371
0.410
0.502
0.454
0.539
0.569
0.483
0.432
0.535
0.577
0.512
0.553
0.515
0.654
0.583
0.598
0.531
0.498
0.481
0.606
0.587
0.474
0.588
0.540
0.525
0.574
0.393
0.452
0.453
0.459
0.360
0.452
0.333
0.413
0.430
0.380
0.393
0.310
0.377
0.319
0.259
0.298
0.267
0.253
0.310
0.282
0.252
0.207
0.311
0.301
0.188
0.236
0.255
0.276
0.260
0.154
0.104
0.207
0.075
0.072
0.097
0.175
0.117
0.107
0.158
0.090
0.000
0.154
0.129
0.116
0.089
0.098
0.138
0.093
0.062
0.084
0.100
0.089
0.162
0.202
0.200
0.198
0.182
0.209
0.196
0.093
0.234
0.074
0.174
0.096
0.102
0.119
0.094
0.150
0.229
0.130
0.165
0.169
0.189
0.133
0.215
0.227
0.197
0.114
0.206
0.089
0.154
0.174
0.191
0.134
0.196
0.225
0.077
0.092
0.222
0.144
0.142
0.240
0.204
0.245
0.112
0.088
0.140
0.161
0.174
0.247
0.161
0.146
0.252
0.122
0.194
0.248
0.196
0.130
0.172
0.078
0.236
0.151
0.133
0.250
0.163
0.133
0.101
0.192
0.117
0.104
0.196
0.145
0.160
0.226
0.251
0.161
0.272
0.271
0.139
0.241
0.214
0.270
0.214
0.233
0.241
0.178
0.155
0.118
0.197
0.228
0.164
0.208
0.160
0.170
0.234
0.278
0.274
0.158
0.193
0.281
0.169
0.297
0.236
0.155
0.274
0.245
0.226
0.174
0.137
0.173
0.197
0.246
0.310
0.172
0.271
0.295
0.221
0.166
0.284
0.225
0.161
0.298
0.256
0.160
0.306
0.151
0.153
0.323
0.270
0.215
0.239
0.286
0.159
0.281
0.277
0.235
0.258
0.215
0.186
0.228
0.321
0.198
0.223
0.217
0.175
0.253
0.311
0.324
0.293
0.233
0.218
0.289
0.324
0.333
0.183
0.255
0.193
0.216
0.329
0.207
0.195
0.271
0.231
0.244
0.318
0.327
0.299
0.253
0.294
0.218
0.291
0.302
0.290
0.245
0.249
0.215
0.328
0.274
0.250
0.326
0.231
0.340
0.336
0.342
0.258
0.261
0.347
0.277
0.296
0.319
0.368
0.294
0.311
0.300
0.364
0.354
0.231
0.233
0.245
0.337
0.239
0.379
0.331
0.237
0.359
0.369
0.379
0.310
0.309
0.241
0.302
0.308
0.241
0.300
0.308
0.249
0.325
0.219
0.272
0.311
0.274
0.324
0.282
0.242
0.381
0.333
0.337
0.340
0.353
0.371
0.313
0.249
0.290
0.369
0.253
0.282
0.396
0.368
0.264
0.403
0.236
0.300
0.296
0.295
0.243
0.296
0.330
0.398
0.262
0.287
0.272
0.277
0.260
0.231
0.308
0.272
0.385
0.325
0.395
0.406
0.338
0.255
0.400
0.342
0.395
0.313
0.347
0.252
0.405
0.356
0.261
0.368
0.314
0.260
0.284
0.291
0.288
0.374
0.384
0.348
0.350
0.364
0.428
0.367
0.361
0.417
0.358
0.317
0.429
0.337
0.367
0.389
0.382
0.300
0.277
0.313
0.420
0.365
0.349
0.344
0.406
0.386
0.387
0.299
0.349
0.362
0.340
0.360
0.336
0.414
0.345
0.404
0.364
0.409
0.447
0.373
0.443
0.321
0.439
0.299
0.368
0.290
0.431
0.319
0.318
0.321
0.413
0.329
0.345
0.429
0.382
0.456
0.305
0.373
0.398
0.398
0.445
0.321
0.353
0.301
0.471
0.439
0.437
0.328
0.366
0.332
0.394
0.451
0.420
0.431
0.423
0.440
0.464
0.423
0.344
0.415
0.342
0.476
0.329
0.376
0.420
0.402
0.462
0.413
0.360
0.447
0.347
0.439
0.435
0.364
0.356
0.354
0.352
0.362
0.497
0.330
0.499
0.333
0.503
0.383
0.424
0.485
0.492
0.366
0.451
0.502
0.509
0.355
0.368
0.470
0.346
0.351
0.426
0.491
0.518
0.341
0.438
0.496
0.505
0.494
0.501
0.478
0.366
0.437
0.376
0.495
0.513
0.378
0.507
0.419
0.418
0.399
0.506
0.484
0.432
0.480
0.522
0.385
0.398
0.470
0.500
0.509
0.428
0.378
0.372
0.423
0.507
0.398
0.501
0.478
0.366
0.502
0.527
0.451
0.512
0.387
0.500
0.530
0.514
0.412
0.404
0.460
0.438
0.453
0.546
0.477
0.538
0.457
0.448
0.509
0.504
0.451
0.381
0.388
0.515
0.490
0.380
0.474
0.503
0.395
0.414
0.521
0.401
0.534
0.542
0.380
0.445
0.408
0.475
0.397
0.386
0.546
0.554
0.445
0.496
0.393
0.419
0.389
0.466
0.410
0.560
0.460
0.554
0.513
0.488
0.481
0.511
0.386
0.525
0.551
0.388
0.534
0.524
0.565
0.428
0.552
0.503
0.407
0.436
0.525
0.533
0.408
0.473
0.429
0.555
0.447
0.544
0.437
0.548
0.425
0.527
0.397
0.506
0.493
0.459
0.430
0.534
0.419
0.480
0.395
0.426
0.480
0.543
0.419
0.525
0.517
0.400
0.481
0.568
0.415
0.527
0.509
0.501
0.484
0.496
0.471
0.409
0.447
0.496
0.509
0.562
0.570
0.412
0.514
0.503
0.481
0.460
0.481
0.516
0.567
0.412
0.539
0.502
0.559
0.414
0.449
0.405
0.486
0.533
0.447
0.436
0.455
0.477
0.528
0.487
0.464
0.558
0.568
0.508
0.420
0.506
0.464
0.573
0.447
0.522
0.491
0.430
0.519
0.404
0.428
0.403
0.553
0.545
0.416
0.468
0.416
0.497
0.564
0.440
0.571
0.456
0.431
0.513
0.567
0.504
0.404
0.460
0.422
0.434
0.402
0.553
0.534
0.458
0.540
0.526
0.502
0.461
0.455
0.406
0.451
0.488
0.472
0.505
0.481
0.535
0.406
0.471
0.494
0.422
0.497
0.397
0.490
0.537
0.476
0.465
0.413
0.391
0.521
0.527
0.437
0.405
0.451
0.532
0.534
0.502
0.554
0.551
0.402
0.498
0.468
0.393
0.541
0.469
0.518
0.391
0.426
0.506
0.424
0.524
0.489
0.567
0.557
0.519
0.514
0.531
0.645
0.572
0.580
0.592
0.690
0.570
0.699
0.555
0.623
0.708
0.643
0.702
0.683
0.614
0.729
0.740
0.758
0.713
0.750
0.798
0.841
0.702
0.720
0.828
0.859
0.909
0.765
0.818
0.883
0.840
0.937
0.845
0.826
0.933
0.853
0.961
0.929
0.859
0.773
0.789
0.800
0.895
0.836
0.775
0.757
0.773
0.846
0.838
0.752
0.763
0.768
0.633
0.720
0.615
0.671
0.667
0.577
0.573
0.715
0.635
0.594
0.582
0.533
0.521
0.546
0.532
0.601
0.537
0.522
0.451
0.575
0.526
0.543
0.500
0.547
0.535
0.394
0.449
0.457
0.404
0.456
0.327
0.304
0.271
0.292
0.370
0.375
0.363
0.359
0.314
0.469
0.437
0.402
0.365
0.464
0.467
0.471
0.402
0.491
0.467
0.330
0.358
0.461
0.386
0.397
0.482
0.484
0.448
0.413
0.473
0.397
0.338
0.365
0.359
0.405
0.317
0.316
0.333
0.472
0.447
0.428
0.473
0.478
0.475
0.325
0.468
0.391
0.309
0.350
0.454
0.442
0.293
0.406
0.434
0.334
0.300
0.335
0.306
0.373
0.360
0.353
0.442
0.358
0.333
0.290
0.320
0.323
0.284
0.404
0.279
0.386
0.349
0.319
0.390
0.330
0.291
0.367
0.300
0.428
0.388
0.419
0.407
0.416
0.385
0.399
0.395
0.330
0.367
0.428
0.282
0.361
0.348
0.432
0.383
0.446
0.374
0.419
0.353
0.366
0.300
0.381
0.439
0.362
0.351
0.407
0.281
0.421
0.264
0.354
0.383
0.363
0.346
0.318
0.367
0.422
0.380
0.427
0.275
0.348
0.275
0.352
0.377
0.280
0.392
0.324
0.412
0.306
0.261
0.289
0.263
0.418
0.250
0.267
0.248
0.284
0.246
0.358
0.335
0.286
0.276
0.257
0.305
0.240
0.346
0.323
0.291
0.368
0.385
0.281
0.325
0.312
0.292
0.381
0.405
0.341
0.261
0.249
0.330
0.284
0.273
0.322
0.255
0.343
0.231
0.227
0.271
0.233
0.379
0.368
0.287
0.246
0.291
0.288
0.343
0.284
0.381
0.373
0.379
0.270
0.259
0.365
0.243
0.228
0.297
0.365
0.274
0.240
0.214
0.366
0.306
0.265
0.315
0.337
0.254
0.317
0.229
0.363
0.318
0.220
0.268
0.301
0.353
0.281
0.297
0.306
0.348
0.210
0.254
0.236
0.303
0.338
0.265
0.321
0.234
0.273
0.243
0.333
0.292
0.319
0.189
0.219
0.305
0.205
0.172
0.243
0.331
0.209
0.263
0.225
0.164
0.248
0.305
0.203
0.164
0.198
0.271
0.211
0.269
0.152
0.277
0.217
0.153
0.218
0.272
0.308
0.318
0.316
0.299
0.293
0.280
0.235
0.209
0.156
0.248
0.284
0.178
0.277
0.138
0.191
0.169
0.144
0.228
0.171
0.285
0.202
0.245
0.114
0.219
0.214
0.254
0.226
0.265
0.269
0.134
0.141
0.247
0.116
0.174
0.157
0.234
0.121
0.243
0.241
0.196
0.145
0.112
0.210
0.102
0.108
0.120
0.176
0.215
0.248
0.183
0.102
0.149
0.207
0.232
0.143
0.179
0.236
0.196
0.184
0.147
0.161
0.229
0.148
0.168
0.151
0.206
0.185
0.200
0.171
0.154
0.167
0.093
0.154
0.253
0.219
0.209
0.215
0.213
0.228
0.215
0.251
0.096
0.146
0.163
0.121
0.081
0.247
0.203
0.099
0.098
0.197
0.139
0.084
0.143
0.095
0.212
0.235
0.069
0.184
0.189
0.112
0.217
0.119
0.070
0.082
0.207
0.191
0.204
0.175
0.210
0.069
0.135
0.106
0.147
0.218
0.111
0.167
0.065
0.087
0.208
0.094
0.207
0.119
0.178
0.067
0.188
0.146
0.225
0.108
0.123
0.076
0.227
0.132
0.070
0.182
0.144
0.112
0.188
0.202
0.098
0.148
0.130
0.080
0.159
0.219
0.070
0.212
0.149
0.127
0.077
0.094
0.130
0.145
0.113
0.187
0.206
0.180
0.121
0.156
0.162
0.071
0.136
0.103
0.151
0.216
0.123
0.053
0.213
0.212
0.110
0.092
0.186
0.137
0.146
0.168
0.062
0.201
0.214
0.062
0.196
0.207
0.047
0.138
0.161
0.113
0.160
0.180
0.147
0.157
0.094
0.194
0.120
0.157
0.193
0.092
0.115
0.143
0.123
0.060
0.177
0.049
0.120
0.050
0.218
0.137
0.206
0.112
0.202
0.089
0.206
0.203
0.115
0.155
0.145
0.204
0.082
0.045
0.201
0.086
0.088
0.159
0.099
0.192
0.202
0.213
0.114
0.188
0.073
0.157
0.170
0.060
0.140
0.204
0.093
0.088
0.196
0.134
0.073
0.087
0.164
0.147
0.099
0.158
0.175
0.097
0.121
0.112
0.187
0.072
0.209
0.100
0.138
0.189
0.170
0.076
0.174
0.073
0.219
0.208
0.142
0.172
0.225
0.074
0.186
0.199
0.191
0.086
0.129
0.055
0.111
0.077
0.134
0.156
0.196
0.129
0.150
0.220
0.216
0.153
0.217
0.066
0.201
0.117
0.098
0.205
0.120
0.088
0.064
0.230
0.181
0.214
0.228
0.182
0.225
0.107
0.220
0.227
0.116
0.076
0.201
0.079
0.194
0.145
0.181
0.096
0.161
0.180
0.069
0.151
0.226
0.089
0.148
0.187
0.122
0.240
0.195
0.108
0.171
0.229
0.172
0.207
0.233
0.224
0.098
0.109
0.103
0.081
0.078
0.183
0.186
0.242
0.210
0.133
0.168
0.126
0.212
0.102
0.215
0.227
0.216
0.144
0.188
0.168
0.101
0.234
0.209
0.135
0.261
0.121
0.142
0.163
0.132
0.125
0.217
0.124
0.186
0.146
0.176
0.259
0.133
0.096
0.258
0.218
0.189
0.191
0.117
0.277
0.164
0.212
0.171
0.103
0.200
0.194
0.148
0.113
0.255
0.114
0.163
0.247
0.281
0.213
0.248
0.240
0.227
0.230
0.280
0.208
0.185
0.234
0.193
0.139
0.195
0.215
0.188
0.190
0.253
0.213
0.208
0.137
0.167
0.203
0.237
0.251
0.302
0.292
0.143
0.298
0.157
0.302
0.236
0.173
0.144
0.185
0.278
0.147
0.197
0.159
0.175
0.169
0.294
0.196
0.302
0.234
0.330
0.315
0.288
0.396
0.406
0.438
0.282
0.408
0.306
0.335
0.347
0.404
0.393
0.423
0.417
0.453
0.471
0.521
0.559
0.478
0.592
0.585
0.611
0.508
0.498
0.607
0.634
0.541
0.549
0.650
0.700
0.712
0.593
0.719
0.762
0.692
0.636
0.672
0.750
0.617
0.676
0.687
0.751
0.608
0.582
0.667
0.561
0.708
0.567
0.621
0.649
0.642
0.571
0.610
0.628
0.616
0.484
0.533
0.566
0.451
0.540
0.482
0.492
0.424
0.383
0.412
0.513
0.423
0.378
0.456
0.448
0.304
0.448
0.424
0.329
0.381
0.305
0.409
0.283
0.253
0.347
0.289
0.311
0.357
0.231
0.179
0.297
0.217
0.267
0.207
0.199
0.225
0.356
0.274
0.289
0.338
0.369
0.360
0.291
0.259
0.342
0.228
0.278
0.343
0.335
0.289
0.408
0.254
0.365
0.262
0.313
0.384
0.301
0.251
0.338
0.288
0.264
0.366
0.329
0.276
0.262
0.281
0.270
0.304
0.417
0.343
0.293
0.328
0.370
0.349
0.361
0.408
0.322
0.389
0.284
0.267
0.318
0.405
0.327
0.434
0.369
0.322
0.429
0.424
0.417
0.311
0.317
0.406
0.393
0.357
0.443
0.356
0.449
0.360
0.363
0.411
0.344
0.357
0.300
0.413
0.379
0.395
0.422
0.320
0.439
0.449
0.342
0.421
0.354
0.344
0.327
0.417
0.395
0.449
0.350
0.335
0.382
0.391
0.448
0.332
0.319
0.423
0.318
0.338
0.439
0.408
0.414
0.462
0.461
0.410
0.371
0.344
0.482
0.498
0.494
0.441
0.344
0.342
0.362
0.336
0.461
0.358
0.447
0.475
0.436
0.404
0.484
0.393
0.396
0.480
0.431
0.388
0.473
0.373
0.509
0.385
0.361
0.360
0.485
0.495
0.482
0.486
0.523
0.435
0.493
0.429
0.523
0.355
0.531
0.458
0.419
0.458
0.412
0.388
0.479
0.483
0.503
0.425
0.408
0.426
0.423
0.531
0.501
0.418
0.476
0.505
0.520
0.531
0.476
0.383
0.410
0.527
0.447
0.491
0.514
0.419
0.474
0.417
0.377
0.514
0.381
0.448
0.424
0.416
0.498
0.544
0.382
0.515
0.525
0.544
0.557
0.405
0.476
0.531
0.498
0.556
0.555
0.559
0.399
0.465
0.445
0.412
0.412
0.533
0.483
0.558
0.566
0.463
0.457
0.432
0.471
0.439
0.474
0.470
0.439
0.417
0.468
0.484
0.452
0.516
0.474
0.473
0.537
0.541
0.530
0.537
0.485
0.495
0.509
0.414
0.441
0.507
0.451
0.534
0.445
0.404
0.450
0.497
0.571
0.521
0.526
0.498
0.493
0.554
0.468
0.480
0.435
0.533
0.495
0.461
0.523
0.417
0.398
0.503
0.514
0.500
0.558
0.509
0.489
0.441
0.403
0.523
0.421
0.438
0.434
0.486
0.485
0.529
0.544
0.530
0.563
0.422
0.556
0.398
0.433
0.392
0.511
0.553
0.493
0.419
0.481
0.493
0.426
0.450
0.520
0.491
0.418
0.461
0.464
0.496
0.397
0.497
0.560
0.413
0.525
0.567
0.503
0.523
0.449
0.477
0.403
0.464
0.460
0.446
0.541
0.476
0.539
0.537
0.446
0.408
0.406
0.510
0.472
0.558
0.470
0.424
0.492
0.563
0.514
0.467
0.442
0.548
0.565
0.464
0.408
0.429
0.499
0.429
0.448
0.479
0.458
0.453
0.478
0.438
0.401
0.514
0.424
0.539
0.469
0.454
0.529
0.529
0.427
0.417
0.427
0.507
0.546
0.486
0.425
0.523
0.557
0.434
0.550
0.432
0.544
0.548
0.488
0.479
0.553
0.405
0.485
0.504
0.524
0.434
0.397
0.418
0.530
0.566
0.461
0.569
0.450
0.416
0.460
0.492
0.504
0.488
0.447
0.419
0.417
0.414
0.516
0.472
0.409
0.514
0.421
0.532
0.480
0.486
0.425
0.527
0.481
0.489
0.462
0.515
0.399
0.492
0.539
0.465
0.501
0.439
0.493
0.434
0.526
0.525
0.553
0.462
0.464
0.489
0.532
0.387
0.414
0.549
0.549
0.460
0.524
0.545
0.498
0.444
0.450
0.455
0.498
0.459
0.546
0.439
0.436
0.535
0.472
0.508
0.396
0.454
0.386
0.490
0.497
0.535
0.489
0.493
0.522
0.453
0.451
0.512
0.515
0.401
0.371
0.377
0.391
0.396
0.477
0.370
0.448
0.485
0.383
0.404
0.413
0.392
0.419
0.503
0.413
0.498
0.457
0.457
0.488
0.495
0.517
0.380
0.497
0.388
0.359
0.376
0.377
0.375
0.519
0.400
0.519
0.464
0.505
0.414
0.390
0.381
0.444
0.392
0.400
0.348
0.449
0.516
0.495
0.344
0.455
0.405
0.361
0.437
0.414
0.431
0.496
0.364
0.414
0.347
0.403
0.464
0.351
0.452
0.386
0.439
0.358
0.409
0.332
0.370
0.376
0.419
0.366
0.388
0.459
0.399
0.334
0.393
0.408
0.470
0.376
0.467
0.421
0.329
0.365
0.423
0.403
0.352
0.358
0.454
0.424
0.339
0.440
0.383
0.394
0.437
0.381
0.311
0.321
0.413
0.386
0.471
0.322
0.371
0.401
0.322
0.463
0.414
0.462
0.412
0.301
0.354
0.317
0.409
0.306
0.415
0.379
0.348
0.384
0.418
0.436
0.346
0.345
0.350
0.406
0.440
0.422
0.441
0.440
0.314
0.434
0.453
0.418
0.436
0.291
0.394
0.335
0.391
0.433
0.342
0.411
0.303
0.365
0.383
0.398
0.324
0.316
0.432
0.377
0.283
0.378
0.299
0.403
0.417
0.322
0.285
0.397
0.316
0.304
0.293
0.269
0.355
0.327
0.388
0.340
0.321
0.263
0.289
0.347
0.322
0.409
0.257
0.326
0.342
0.269
0.340
0.396
0.277
0.269
0.251
0.357
0.242
0.290
0.411
0.372
0.278
0.356
0.258
0.345
0.384
0.391
0.292
0.316
0.349
0.353
0.308
0.290
0.274
0.237
0.302
0.251
0.292
0.384
0.310
0.381
0.234
0.394
0.233
0.271
0.354
0.320
0.295
0.264
0.234
0.262
0.238
0.264
0.226
0.354
0.378
0.243
0.329
0.209
0.311
0.320
0.206
0.199
0.223
0.361
0.266
0.322
0.330
0.347
0.315
0.339
0.349
0.460
0.305
0.375
0.455
0.429
0.388
0.504
0.369
0.419
0.530
0.499
0.513
0.485
0.436
0.590
0.587
0.517
0.598
0.517
0.534
0.620
0.505
0.667
0.507
0.570
0.535
0.615
0.687
0.719
0.660
0.719
0.685
0.728
0.606
0.699
0.663
0.662
0.768
0.621
0.666
0.602
0.651
0.717
0.551
0.686
0.527
0.526
0.597
0.493
0.474
0.566
0.441
0.601
0.510
0.469
0.517
0.549
0.437
0.481
0.453
0.473
0.429
0.379
0.452
0.330
0.420
0.445
0.306
0.371
0.351
0.295
0.299
0.368
0.358
0.307
0.234
0.161
0.246
0.232
0.183
0.266
0.209
0.197
0.127
0.077
0.110
0.109
0.139
0.238
0.125
0.135
0.207
0.223
0.144
0.228
0.264
0.252
0.159
0.168
0.143
0.190
0.168
0.159
0.274
0.179
0.174
0.212
0.117
0.141
0.233
0.206
0.138
0.252
0.177
0.198
0.194
0.132
0.113
0.181
0.103
0.174
0.196
0.209
0.101
0.221
0.124
0.199
0.201
0.230
0.101
0.243
0.158
0.161
0.147
0.187
0.140
0.152
0.149
0.198
0.204
0.262
0.253
0.146
0.117
0.247
0.133
0.180
0.245
0.096
0.126
0.155
0.182
0.239
0.116
0.250
0.154
0.216
0.169
0.134
0.152
0.202
0.237
0.236
0.102
0.100
0.239
0.196
0.087
0.170
0.240
0.150
0.133
0.123
0.117
0.149
0.187
0.129
0.192
0.225
0.100
0.211
0.197
0.166
0.247
0.098
0.188
0.122
0.086
0.184
0.231
0.180
0.230
0.116
0.191
0.111
0.131
0.083
0.204
0.249
0.213
0.214
0.175
0.129
0.122
0.129
0.250
0.119
0.174
0.114
0.155
0.103
0.144
0.219
0.222
0.238
0.173
0.223
0.203
0.084
0.102
0.118
0.120
0.106
0.117
0.124
0.245
0.137
0.128
0.147
0.129
0.210
0.138
0.096
0.184
0.137
0.138
0.086
0.228
0.155
0.087
0.235
0.123
0.182
0.191
0.108
0.244
0.191
0.169
0.227
0.171
0.076
0.158
0.216
0.203
0.173
0.073
0.199
0.151
0.189
0.205
0.214
0.076
0.210
0.172
0.084
0.115
0.094
0.171
0.166
0.082
0.246
0.114
0.126
0.123
0.077
0.163
0.115
0.142
0.238
0.233
0.090
0.174
0.133
0.197
0.162
0.115
0.156
0.221
0.197
0.103
0.096
0.134
0.221
0.190
0.180
0.092
0.081
0.223
0.142
0.154
0.149
0.159
0.115
0.108
0.227
0.228
0.174
0.131
0.173
0.185
0.225
0.081
0.162
0.142
0.175
0.165
0.105
0.083
0.066
0.075
0.122
0.203
0.124
0.174
0.241
0.179
0.160
0.104
0.195
0.221
0.216
0.168
0.178
0.224
0.138
0.112
0.172
0.112
0.169
0.066
0.233
0.089
0.161
0.115
0.181
0.058
0.066
0.219
0.070
0.114
0.149
0.099
0.152
0.195
0.149
0.223
0.083
0.132
0.108
0.165
0.065
0.070
0.117
0.077
0.090
0.126
0.067
0.187
0.176
0.093
0.073
0.135
0.145
0.099
0.219
0.171
0.068
0.225
0.146
0.076
0.085
0.245
0.222
0.177
0.073
0.126
0.152
0.087
0.172
0.128
0.151
0.174
0.085
0.082
0.126
0.166
0.174
0.117
0.237
0.222
0.155
0.251
0.180
0.119
0.222
0.159
0.123
0.250
0.105
0.172
0.254
0.197
0.192
0.166
0.186
0.246
0.151
0.125
0.161
0.135
0.166
0.199
0.183
0.157
0.245
0.143
0.161
0.183
0.102
0.133
0.113
0.111
0.252
0.100
0.245
0.186
0.116
0.184
0.204
0.114
0.273
0.216
0.182
0.255
0.148
0.249
0.161
0.271
0.147
0.275
0.196
0.207
0.284
0.245
0.164
0.119
0.117
0.255
0.184
0.180
0.205
0.272
0.186
0.222
0.132
0.176
0.142
0.161
0.185
0.167
0.158
0.233
0.263
0.159
0.282
0.256
0.219
0.298
0.226
0.165
0.280
0.281
0.184
0.187
0.280
0.218
0.140
0.271
0.209
0.183
0.194
0.200
0.278
0.143
0.267
0.294
0.190
0.257
0.182
0.252
0.155
0.315
0.253
0.213
0.151
0.299
0.255
0.299
0.239
0.151
0.314
0.224
0.282
0.180
0.299
0.317
0.294
0.291
0.229
0.283
0.259
0.264
0.222
0.287
0.190
0.163
0.264
0.262
0.263
0.290
0.332
0.336
0.330
0.277
0.335
0.192
0.233
0.179
0.270
0.306
0.208
0.252
0.194
0.232
0.318
0.275
0.318
0.295
0.342
0.194
0.215
0.259
0.318
0.346
0.192
0.213
0.265
0.326
0.284
0.326
0.223
0.314
0.305
0.196
0.328
0.374
0.221
0.263
0.234
0.328
0.233
0.378
0.206
0.211
0.348
0.359
0.308
0.342
0.301
0.314
0.244
0.301
0.221
0.223
0.274
0.327
0.375
0.337
0.340
0.342
0.362
0.338
0.314
0.281
0.389
0.267
0.316
0.357
0.272
0.378
0.324
0.391
0.292
0.398
0.397
0.337
0.251
0.300
0.284
0.283
0.277
0.238
0.398
0.320
0.344
0.297
0.420
0.419
0.416
0.364
0.375
0.306
0.341
0.297
0.377
0.389
0.265
0.291
0.289
0.365
0.384
0.404
0.259
0.293
0.341
0.326
0.320
0.272
0.397
0.334
0.383
0.362
0.274
0.320
0.439
0.434
0.336
0.379
0.370
0.419
0.442
0.286
0.432
0.374
0.310
0.315
0.403
0.384
0.383
0.452
0.384
0.299
0.311
0.301
0.309
0.404
0.399
0.352
0.316
0.357
0.431
0.360
0.425
0.343
0.406
0.450
0.330
0.380
0.315
0.319
0.308
0.311
0.410
0.372
0.413
0.453
0.437
0.476
0.442
0.470
0.436
0.350
0.434
0.430
0.445
0.441
0.366
0.401
0.448
0.413
0.482
0.343
0.475
0.448
0.366
0.428
0.399
0.340
0.416
0.492
0.398
0.425
0.340
0.357
0.351
0.329
0.372
0.365
0.389
0.350
0.505
0.419
0.397
0.373
0.394
0.401
0.496
0.420
0.441
0.334
0.438
0.473
0.452
0.430
0.483
0.509
0.393
0.480
0.390
0.342
0.357
0.399
0.406
0.366
0.403
0.465
0.533
0.529
0.546
0.512
0.605
0.629
0.630
0.557
0.647
0.566
0.616
0.619
0.681
0.592
0.671
0.671
0.692
0.641
0.656
0.642
0.637
0.681
0.705
0.748
0.840
0.680
0.812
0.858
0.862
0.740
0.900
0.820
0.908
0.918
0.838
0.898
0.951
0.811
0.832
0.891
0.841
0.810
0.934
0.842
0.920
0.795
0.874
0.900
0.869
0.765
0.778
0.768
0.741
0.743
0.689
0.744
0.734
0.648
0.746
0.633
0.643
0.725
0.691
0.583
0.623
0.629
0.578
0.555
0.614
0.587
0.658
0.597
0.637
0.563
0.473
0.461
0.480
0.505
0.558
0.448
0.459
0.514
0.440
0.436
0.396
0.428
0.508
0.496
0.398
0.443
0.379
0.514
0.467
0.403
0.396
0.489
0.437
0.401
0.417
0.398
0.511
0.529
0.534
0.437
0.550
0.499
0.393
0.452
0.486
0.503
0.471
0.536
0.418
0.566
0.541
0.453
0.502
0.447
0.409
0.486
0.541
0.530
0.563
0.453
0.463
0.421
0.454
0.493
0.493
0.423
0.415
0.466
0.543
0.428
0.484
0.418
0.550
0.532
0.496
0.465
0.483
0.554
0.557
0.485
0.490
0.558
0.499
0.535
0.514
0.480
0.435
0.504
0.429
0.431
0.550
0.419
0.512
0.474
0.506
0.528
0.450
0.404
0.545
0.462
0.514
0.556
0.449
0.580
0.552
0.545
0.522
0.502
0.475
0.553
0.513
0.547
0.584
0.549
0.561
0.496
0.566
0.470
0.447
0.499
0.416
0.559
0.459
0.533
0.554
0.534
0.528
0.455
0.498
0.580
0.456
0.450
0.462
0.551
0.472
0.521
0.446
0.429
0.468
0.454
0.576
0.580
0.419
0.519
0.421
0.489
0.506
0.563
0.524
0.458
0.574
0.550
0.513
0.573
0.478
0.472
0.522
0.427
0.479
0.445
0.556
0.540
0.531
0.574
0.557
0.508
0.413
0.427
0.501
0.579
0.560
0.576
0.582
0.475
0.465
0.547
0.445
0.578
0.573
0.472
0.468
0.529
0.533
0.548
0.511
0.422
0.504
0.411
0.538
0.520
0.509
0.442
0.529
0.530
0.462
0.406
0.550
0.537
0.490
0.525
0.539
0.456
0.560
0.499
0.447
0.443
0.554
0.460
0.420
0.562
0.509
0.567
0.426
0.539
0.479
0.495
0.397
0.489
0.501
0.476
0.397
0.478
0.395
0.535
0.490
0.507
0.498
0.493
0.552
0.412
0.465
0.530
0.467
0.514
0.409
0.500
0.539
0.404
0.451
0.381
0.413
0.491
0.527
0.432
0.374
0.530
0.452
0.530
0.425
0.489
0.367
0.455
0.422
0.422
0.531
0.494
0.418
0.471
0.431
0.459
0.526
0.464
0.380
0.502
0.480
0.369
0.377
0.400
0.422
0.439
0.393
0.491
0.483
0.389
0.449
0.355
0.455
0.396
0.452
0.383
0.450
0.394
0.393
0.359
0.451
0.467
0.485
0.411
0.353
0.425
0.352
0.390
0.468
0.391
0.479
0.380
0.437
0.417
0.329
0.384
0.475
0.319
0.377
0.350
0.347
0.369
0.470
0.394
0.447
0.365
0.384
0.471
0.324
0.312
0.425
0.464
0.316
0.413
0.321
0.419
0.406
0.301
0.435
0.467
0.369
0.351
0.298
0.328
0.391
0.394
0.331
0.402
0.295
0.451
0.299
0.341
0.397
0.370
0.374
0.346
0.415
0.327
0.392
0.440
0.333
0.418
0.413
0.294
0.299
0.344
0.392
0.385
0.389
0.268
0.288
0.401
0.414
0.396
0.431
0.425
0.300
0.350
0.399
0.351
0.367
0.356
0.386
0.266
0.341
0.294
0.312
0.349
0.383
0.323
0.339
0.270
0.285
0.298
0.325
0.287
0.290
0.401
0.346
0.408
0.350
0.283
0.256
0.334
0.315
0.358
0.370
0.305
0.334
0.268
0.399
0.321
0.278
0.269
0.397
0.349
0.352
0.342
0.363
0.326
0.312
0.378
0.290
0.262
0.268
0.379
0.342
0.368
0.282
0.327
0.218
0.376
0.295
0.303
0.346
0.268
0.319
0.265
0.261
0.320
0.281
0.221
0.244
0.375
0.325
0.317
0.257
0.201
0.299
0.203
0.242
0.228
0.274
0.330
0.304
0.247
0.242
0.203
0.219
0.316
0.202
0.349
0.261
0.198
0.285
0.331
0.243
0.320
0.306
0.284
0.245
0.247
0.253
0.251
0.213
0.262
0.180
0.273
0.180
0.326
0.323
0.229
0.341
0.337
0.342
0.193
0.165
0.208
0.224
0.203
0.296
0.200
0.239
0.205
0.219
0.318
0.158
0.179
0.223
0.303
0.191
0.319
0.324
0.217
0.325
0.170
0.284
0.250
0.257
0.233
0.184
0.169
0.256
0.285
0.261
0.225
0.308
0.244
0.179
0.259
0.194
0.269
0.313
0.182
0.300
0.257
0.149
0.175
0.297
0.215
0.286
0.267
0.131
0.264
0.248
0.280
0.228
0.235
0.143
0.160
0.128
0.200
0.178
0.170
0.207
0.150
0.284
0.284
0.221
0.115
0.275
0.235
0.126
0.290
0.167
0.255
0.192
0.214
0.194
0.207
0.138
0.211
0.133
0.185
0.200
0.186
0.252
0.280
0.275
0.234
0.136
0.106
0.133
0.202
0.210
0.162
0.210
0.255
0.141
0.146
0.117
0.188
0.239
0.146
0.232
0.169
0.189
0.266
0.212
0.262
0.105
0.248
0.097
0.108
0.198
0.151
0.142
0.226
0.137
0.191
0.165
0.134
0.230
0.183
0.093
0.127
0.110
0.179
0.114
0.165
0.207
0.247
0.212
0.090
0.242
0.248
0.182
0.244
0.132
0.233
0.072
0.158
0.097
0.127
0.101
0.175
0.187
0.131
0.078
0.076
0.077
0.080
0.069
0.240
0.197
0.200
0.071
0.085
0.111
0.223
0.237
0.240
0.124
0.114
0.095
0.194
0.189
0.094
0.137
0.068
0.176
0.198
0.213
0.198
0.135
0.120
0.067
0.203
0.075
0.057
0.105
0.224
0.176
0.124
0.208
0.175
0.163
0.132
0.225
0.200
0.055
0.078
0.138
0.156
0.104
0.130
0.122
0.075
0.221
0.115
0.200
0.057
0.125
0.063
0.105
0.218
0.201
0.080
0.144
0.101
0.209
0.062
0.188
0.079
0.176
0.088
0.084
0.085
0.231
0.136
0.191
0.097
0.140
0.265
0.202
0.130
0.223
0.298
0.317
0.225
0.224
0.341
0.281
0.304
0.257
0.261
0.406
0.432
0.335
0.423
0.457
0.456
0.457
0.440
0.359
0.381
0.427
0.364
0.418
0.556
0.447
0.504
0.521
0.584
0.504
0.568
0.491
0.476
0.587
0.609
0.550
0.604
0.548
0.625
0.536
0.585
0.562
0.611
0.464
0.525
0.422
0.494
0.538
0.383
0.424
0.482
0.498
0.424
0.502
0.390
0.351
0.377
0.311
0.300
0.309
0.386
0.349
0.403
0.358
0.312
0.279
0.240
0.313
0.185
0.177
0.279
0.200
0.230
0.170
0.233
0.160
0.214
0.253
0.080
0.138
0.061
0.163
0.186
0.028
0.096
0.091
0.110
0.052
0.116
0.055
0.148
0.166
0.134
0.081
0.128
0.159
0.111
0.202
0.076
0.099
0.222
0.172
0.190
0.200
0.064
0.130
0.186
0.082
0.170
0.102
0.208
0.208
0.139
0.129
0.231
0.061
0.131
0.147
0.171
0.074
0.087
0.179
0.101
0.084
0.071
0.093
0.155
0.219
0.202
0.089
0.077
0.186
0.153
0.155
0.123
0.126
0.231
0.149
0.203
0.103
0.085
0.108
0.171
0.190
0.240
0.080
0.102
0.152
0.132
0.090
0.220
0.147
0.193
0.178
0.078
0.194
0.135
0.126
0.161
0.191
0.223
0.181
0.086
0.227
0.137
0.237
0.214
0.201
0.163
0.107
0.275
0.216
0.140
0.117
0.144
0.263
0.142
0.190
0.268
0.141
0.187
0.219
0.216
0.229
0.159
0.188
0.256
0.281
0.199
0.171
0.195
0.173
0.168
0.145
0.150
0.210
0.138
0.289
0.151
0.154
0.254
0.247
0.192
0.145
0.131
0.197
0.272
0.212
0.151
0.278
0.252
0.216
0.232
0.231
0.250
0.254
0.174
0.284
0.176
0.216
0.185
0.192
0.146
0.311
0.239
0.230
0.242
0.209
0.209
0.327
0.236
0.286
0.273
0.296
0.203
0.206
0.284
0.190
0.307
0.189
0.330
0.289
0.185
0.314
0.329
0.264
0.236
0.244
0.291
0.213
0.173
0.338
0.347
0.309
0.347
0.259
0.195
0.256
0.307
0.295
0.332
0.312
0.287
0.227
0.239
0.329
0.249
0.195
0.336
0.260
0.214
0.185
0.301
0.252
0.253
0.266
0.280
0.242
0.275
0.191
0.221
0.246
0.325
0.297
0.319
0.338
0.347
0.217
0.314
0.332
0.324
0.307
0.206
0.235
0.260
0.317
0.241
0.217
0.379
0.241
0.381
0.315
0.251
0.300
0.335
0.255
0.230
0.308
0.250
0.267
0.386
0.268
0.382
0.287
0.216
0.270
0.243
0.394
0.297
0.315
0.265
0.376
0.237
0.366
0.296
0.385
0.315
0.377
0.285
0.293
0.329
0.386
0.247
0.231
0.295
0.330
0.388
0.277
0.321
0.364
0.282
0.240
0.299
0.226
0.342
0.242
0.259
0.319
0.337
0.293
0.335
0.379
0.354
0.300
0.333
0.276
0.362
0.295
0.248
0.289
0.289
0.241
0.269
0.392
0.357
0.393
0.290
0.402
0.280
0.416
0.319
0.287
0.393
0.312
0.338
0.383
0.398
0.321
0.269
0.300
0.395
0.422
0.357
0.424
0.364
0.434
0.395
0.293
0.353
0.376
0.417
0.370
0.442
0.288
0.318
0.351
0.290
0.309
0.301
0.390
0.329
0.413
0.370
0.314
0.397
0.284
0.378
0.454
0.342
0.378
0.445
0.326
0.429
0.313
0.439
0.333
0.436
0.429
0.319
0.461
0.333
0.427
0.434
0.379
0.454
0.309
0.316
0.446
0.297
0.425
0.441
0.317
0.384
0.360
0.437
0.350
0.447
0.332
0.456
0.468
0.337
0.313
0.403
0.307
0.454
0.469
0.434
0.352
0.415
0.478
0.471
0.420
0.454
0.463
0.414
0.315
0.360
0.393
0.394
0.474
0.331
0.380
0.352
0.365
0.451
0.374
0.365
0.349
0.364
0.471
0.393
0.445
0.494
0.404
0.437
0.502
0.395
0.449
0.387
0.490
0.385
0.386
0.496
0.423
0.372
0.341
0.367
0.391
0.510
0.479
0.460
0.490
0.416
0.467
0.428
0.489
0.421
0.497
0.346
0.523
0.395
0.352
0.374
0.433
0.507
0.399
0.489
0.380
0.481
0.395
0.366
0.505
0.476
0.525
0.530
0.450
0.517
0.441
0.515
0.361
0.380
0.490
0.428
0.429
0.467
0.364
0.430
0.371
0.485
0.455
0.376
0.436
0.441
0.482
0.404
0.380
0.449
0.497
0.477
0.528
0.413
0.408
0.411
0.514
0.495
0.527
0.498
0.489
0.450
0.473
0.549
0.544
0.434
0.402
0.449
0.474
0.380
0.530
0.536
0.465
0.414
0.506
0.502
0.460
0.409
0.521
0.538
0.405
0.548
0.380
0.459
0.383
0.423
0.508
0.506
0.430
0.441
0.400
0.391
0.519
0.442
0.478
0.555
0.504
0.470
0.502
0.505
0.427
0.530
0.477
0.465
0.514
0.487
0.433
0.402
0.494
0.509
0.494
0.484
0.474
0.448
0.467
0.527
0.568
0.438
0.532
0.415
0.398
0.473
0.492
0.433
0.418
0.513
0.456
0.484
0.517
0.499
0.484
0.532
0.516
0.451
0.542
0.512
0.499
0.398
0.544
0.415
0.545
0.455
0.471
0.537
0.420
0.504
0.561
0.509
0.404
0.520
0.441
0.519
0.461
0.493
0.436
0.558
0.463
0.410
0.402
0.508
0.563
0.453
0.529
0.448
0.418
0.488
0.465
0.571
0.448
0.502
0.498
0.506
0.496
0.446
0.423
0.527
0.403
0.539
0.469
0.544
0.569
0.471
0.405
0.536
0.508
0.486
0.497
0.451
0.529
0.455
0.553
0.455
0.537
0.539
0.404
0.466
0.567
0.468
0.453
0.508
0.547
0.535
0.490
0.526
0.525
0.473
0.545
0.481
0.562
0.535
0.416
0.435
0.415
0.487
0.402
0.475
0.567
0.513
0.546
0.479
0.442
0.423
0.561
0.524
0.559
0.509
0.422
0.440
0.399
0.396
0.438
0.418
0.508
0.548
0.449
0.404
0.528
0.469
0.508
0.507
0.460
0.502
0.497
0.477
0.418
0.474
0.516
0.457
0.514
0.504
0.552
0.436
0.442
0.449
0.385
0.493
0.491
0.465
0.485
0.503
0.486
0.481
0.471
0.485
0.640
0.569
0.625
0.557
0.513
0.631
0.595
0.657
0.703
0.580
0.677
0.686
0.685
0.683
0.785
0.655
0.732
0.754
0.658
0.777
0.822
0.753
0.770
0.718
0.816
0.878
0.769
0.759
0.786
0.882
0.903
0.895
0.876
0.859
0.927
0.918
0.925
0.817
0.904
0.894
0.928
0.899
0.771
0.898
0.753
0.745
0.697
0.738
0.722
0.767
0.722
0.673
0.699
0.645
0.755
0.622
0.705
0.707
0.564
0.576
0.545
0.673
0.525
0.625
0.576
0.627
0.536
0.466
0.489
0.566
0.526
0.572
0.537
0.412
0.556
0.503
0.363
0.470
0.425
0.333
0.336
0.318
0.402
0.324
0.296
0.359
0.441
0.394
0.417
0.346
0.351
0.330
0.441
0.413
0.408
0.475
0.492
0.455
0.363
0.439
0.453
0.421
0.462
0.480
0.428
0.317
0.345
0.317
0.478
0.397
0.451
0.390
0.396
0.383
0.466
0.462
0.418
0.356
0.355
0.346
0.428
0.439
0.447
0.443
0.344
0.441
0.409
0.338
0.363
0.376
0.383
0.390
0.354
0.343
0.416
0.457
0.395
0.394
0.419
0.353
0.367
0.376
0.450
0.364
0.396
0.364
0.380
0.287
0.422
0.398
0.313
0.279
0.412
0.376
0.391
0.386
0.403
0.430
0.390
0.291
0.396
0.348
0.386
0.388
0.393
0.283
0.312
0.302
0.438
0.364
0.392
0.391
0.286
0.311
0.321
0.433
0.311
0.314
0.390
0.384
0.393
0.417
0.397
0.270
0.370
0.430
0.281
0.363
0.430
0.298
0.356
0.284
0.395
0.317
0.293
0.434
0.386
0.405
0.379
0.380
0.351
0.289
0.342
0.354
0.401
0.289
0.346
0.395
0.314
0.347
0.377
0.284
0.362
0.246
0.337
0.347
0.245
0.403
0.391
0.380
0.382
0.307
0.267
0.302
0.353
0.404
0.253
0.367
0.245
0.369
0.316
0.240
0.382
0.260
0.250
0.278
0.284
0.336
0.347
0.402
0.402
0.359
0.272
0.393
0.295
0.259
0.332
0.222
0.226
0.249
0.252
0.344
0.294
0.365
0.282
0.361
0.345
0.314
0.238
0.303
0.290
0.274
0.222
0.251
0.264
0.270
0.228
0.258
0.250
0.346
0.259
0.353
0.244
0.334
0.303
0.197
0.318
0.195
0.313
0.347
0.266
0.301
0.292
0.227
0.325
0.236
0.348
0.236
0.277
0.240
0.222
0.276
0.197
0.201
0.193
0.230
0.319
0.264
0.326
0.346
0.228
0.208
0.260
0.230
0.319
0.211
0.314
0.267
0.290
0.222
0.161
0.193
0.248
0.161
0.254
0.204
0.278
0.309
0.155
0.211
0.224
0.162
0.161
0.158
0.305
0.316
0.212
0.197
0.238
0.280
0.279
0.290
0.277
0.134
0.296
0.133
0.134
0.254
0.221
0.217
0.211
0.128
0.157
0.136
0.291
0.126
0.123
0.230
0.173
0.134
0.224
0.243
0.252
0.156
0.185
0.178
0.214
0.243
0.273
0.127
0.149
0.170
0.279
0.162
0.261
0.142
0.138
0.276
0.268
0.211
0.187
0.160
0.233
0.235
0.099
0.103
0.151
0.235
0.204
0.267
0.119
0.200
0.144
0.104
0.245
0.193
0.141
0.116
0.146
0.097
0.201
0.128
0.219
0.136
0.157
0.092
0.087
0.114
0.129
0.091
0.139
0.087
0.096
0.090
0.239
0.132
0.182
0.143
0.245
0.207
0.232
0.180
0.196
0.142
0.112
0.095
0.102
0.238
0.076
0.227
0.162
0.213
0.148
0.130
0.203
0.131
0.166
0.225
0.216
0.109
0.143
0.212
0.091
0.199
0.220
0.152
0.164
0.214
0.237
0.202
0.123
0.150
0.106
0.151
0.073
0.069
0.172
0.168
0.072
0.166
0.154
0.210
0.171
0.105
0.075
0.066
0.166
0.180
0.104
0.130
0.119
0.068
0.066
0.075
0.174
0.092
0.095
0.053
0.182
0.152
0.150
0.183
0.198
0.121
0.074
0.085
0.178
0.169
0.060
0.118
0.137
0.187
0.075
0.135
0.061
0.188
0.118
0.090
0.062
0.061
0.212
0.083
0.217
0.107
0.218
0.107
0.057
0.155
0.145
0.207
0.081
0.186
0.107
0.219
0.194
0.172
0.083
0.047
0.082
0.140
0.064
0.197
0.207
0.104
0.128
0.044
0.099
0.131
0.091
0.166
0.206
0.146
0.091
0.209
0.055
0.155
0.213
0.136
0.214
0.092
0.138
0.206
0.082
0.191
0.068
0.122
0.200
0.170
0.133
0.153
0.058
0.087
0.049
0.195
0.047
0.142
0.066
0.149
0.156
0.178
0.100
0.208
0.184
0.063
0.095
0.207
0.065
0.186
0.064
0.183
0.164
0.184
0.212
0.078
0.050
0.195
0.131
0.066
0.063
0.068
0.077
0.221
0.099
0.155
0.200
0.092
0.178
0.120
0.104
0.166
0.119
0.071
0.225
0.143
0.141
0.109
0.086
0.205
0.099
0.148
0.150
0.224
0.101
0.100
0.108
0.153
0.121
0.098
0.175
0.101
0.227
0.144
0.132
0.157
0.166
0.201
0.214
0.086
0.073
0.114
0.167
0.126
0.224
0.069
0.237
0.179
0.171
0.087
0.066
0.164
0.067
0.189
0.101
0.109
0.235
0.096
0.207
0.072
0.120
0.238
0.114
0.088
0.175
0.183
0.224
0.228
0.078
0.205
0.223
0.156
0.084
0.087
0.107
0.211
0.145
0.221
0.100
0.205
0.101
0.225
0.173
0.248
0.090
0.244
0.142
0.090
0.251
0.195
0.155
0.187
0.143
0.120
0.089
0.110
0.150
0.240
0.163
0.198
0.154
0.235
0.223
0.109
0.104
0.206
0.156
0.109
0.201
0.201
0.254
0.200
0.179
0.196
0.269
0.187
0.157
0.271
0.273
0.257
0.230
0.217
0.230
0.177
0.171
0.139
0.259
0.270
0.272
0.122
0.114
0.134
0.199
0.118
0.108
0.124
0.216
0.119
0.227
0.213
0.124
0.154
0.175
0.135
0.245
0.194
0.118
0.237
0.274
0.142
0.262
0.164
0.124
0.215
0.288
0.259
0.194
0.251
0.210
0.203
0.293
0.229
0.266
0.255
0.153
0.253
0.200
0.153
0.246
0.221
0.144
0.227
0.190
0.288
0.148
0.194
0.326
0.219
0.248
0.264
0.357
0.327
0.382
0.264
0.294
0.383
0.294
0.426
0.413
0.459
0.356
0.471
0.485
0.519
0.450
0.418
0.450
0.464
0.497
0.494
0.553
0.620
0.515
0.519
0.651
0.663
0.565
0.534
0.671
0.567
0.637
0.645
0.685
0.612
0.707
0.635
0.644
0.708
0.668
0.778
0.692
0.670
0.636
0.655
0.701
0.582
0.546
0.659
0.631
0.587
0.667
0.579
0.648
0.563
0.630
0.581
0.569
0.437
0.523
0.490
0.519
0.494
0.426
0.476
0.522
0.359
0.371
0.478
0.333
0.345
0.367
0.462
0.401
0.284
0.327
0.296
0.301
0.247
0.381
0.360
0.342
0.351
0.331
0.206
0.244
0.170
0.156
0.153
0.193
0.201
0.278
0.272
0.315
0.269
0.327
0.326
0.244
0.237
0.230
0.255
0.320
0.377
0.283
0.263
0.241
0.399
0.275
0.344
0.270
0.277
0.368
0.264
0.384
0.254
0.413
0.356
0.291
0.396
0.247
0.379
0.404
0.355
0.374
0.329
0.383
0.249
0.284
0.266
0.281
0.420
0.404
0.278
0.372
0.262
0.282
0.290
0.373
0.412
0.412
0.349
0.401
0.311
0.436
0.441
0.280
0.324
0.314
0.306
0.405
0.334
0.297
0.300
0.431
0.441
0.366
0.277
0.350
0.297
0.446
0.326
0.438
0.439
0.418
0.443
0.288
0.459
0.303
0.343
0.381
0.468
0.398
0.347
0.323
0.329
0.350
0.381
0.376
0.382
0.417
0.389
0.312
0.317
0.384
0.488
0.412
0.479
0.375
0.370
0.476
0.459
0.392
0.480
0.399
